   8.0000000e+02   8.2969925e+00   6.2581894e+00   1.5723400e-03
   8.0500000e+02   8.2660335e+00   6.2115736e+00   1.5407700e-03
   8.1000000e+02   8.2353806e+00   6.1655904e+00   1.5312500e-03
   8.1500000e+02   8.2050290e+00   6.1202274e+00   1.5649900e-03
   8.2000000e+02   8.1749739e+00   6.0754726e+00   1.6305800e-03
   8.2500000e+02   8.1452106e+00   6.0313142e+00   1.8339300e-03
   8.3000000e+02   8.1157345e+00   5.9877406e+00   2.2414350e-03
   8.3500000e+02   8.0865412e+00   5.9447407e+00   2.5915400e-03
   8.4000000e+02   8.0576262e+00   5.9023036e+00   2.7645800e-03
   8.4500000e+02   8.0289853e+00   5.8604186e+00   2.8523600e-03
   8.5000000e+02   8.0006143e+00   5.8190753e+00   2.9390200e-03
   8.5500000e+02   7.9725090e+00   5.7782636e+00   3.0144800e-03
   8.6000000e+02   7.9446655e+00   5.7379736e+00   3.1145450e-03
   8.6500000e+02   7.9170798e+00   5.6981957e+00   3.2236400e-03
   8.7000000e+02   7.8897481e+00   5.6589204e+00   3.3264700e-03
   8.7500000e+02   7.8626665e+00   5.6201386e+00   3.5034650e-03
   8.8000000e+02   7.8358314e+00   5.5818413e+00   3.7085300e-03
   8.8500000e+02   7.8092392e+00   5.5440197e+00   3.8962700e-03
   8.9000000e+02   7.7828863e+00   5.5066653e+00   4.0819800e-03
   8.9500000e+02   7.7567692e+00   5.4697698e+00   4.2655200e-03
   9.0000000e+02   7.7308844e+00   5.4333249e+00   4.4861600e-03
   9.0500000e+02   7.7052288e+00   5.3973228e+00   4.7043500e-03
   9.1000000e+02   7.6797990e+00   5.3617557e+00   4.9781550e-03
   9.1500000e+02   7.6545917e+00   5.3266159e+00   5.3739000e-03
   9.2000000e+02   7.6296039e+00   5.2918960e+00   6.0235350e-03
   9.2500000e+02   7.6048324e+00   5.2575887e+00   7.0844900e-03
   9.3000000e+02   7.5802743e+00   5.2236871e+00   8.6636900e-03
   9.3500000e+02   7.5559264e+00   5.1901840e+00   1.0254720e-02
   9.4000000e+02   7.5317861e+00   5.1570728e+00   1.2726770e-02
   9.4500000e+02   7.5078503e+00   5.1243469e+00   1.6010470e-02
   9.5000000e+02   7.4841162e+00   5.0919996e+00   2.0833750e-02
   9.5500000e+02   7.4605813e+00   5.0600248e+00   2.6434310e-02
   9.6000000e+02   7.4372426e+00   5.0284161e+00   3.0695980e-02
   9.6500000e+02   7.4140976e+00   4.9971676e+00   3.2906930e-02
   9.7000000e+02   7.3911437e+00   4.9662732e+00   3.3598740e-02
   9.7500000e+02   7.3683784e+00   4.9357272e+00   3.4058080e-02
   9.8000000e+02   7.3457990e+00   4.9055239e+00   3.3749660e-02
   9.8500000e+02   7.3234033e+00   4.8756578e+00   3.2953445e-02
   9.9000000e+02   7.3011887e+00   4.8461233e+00   3.1720570e-02
   9.9500000e+02   7.2791529e+00   4.8169151e+00   3.0191210e-02
   1.0000000e+03   7.2572935e+00   4.7880281e+00   2.8500500e-02
   1.0050000e+03   7.2356083e+00   4.7594571e+00   2.6696110e-02
   1.0100000e+03   7.2140951e+00   4.7311971e+00   2.4647490e-02
   1.0150000e+03   7.1927516e+00   4.7032432e+00   2.2706495e-02
   1.0200000e+03   7.1715757e+00   4.6755907e+00   2.0697530e-02
   1.0250000e+03   7.1505652e+00   4.6482347e+00   1.8708935e-02
   1.0300000e+03   7.1297180e+00   4.6211708e+00   1.6738890e-02
   1.0350000e+03   7.1090321e+00   4.5943944e+00   1.5383200e-02
   1.0400000e+03   7.0885056e+00   4.5679010e+00   1.3871585e-02
   1.0450000e+03   7.0681363e+00   4.5416864e+00   1.2711043e-02
   1.0500000e+03   7.0479223e+00   4.5157463e+00   1.1644850e-02
   1.0550000e+03   7.0278618e+00   4.4900765e+00   1.0839407e-02
   1.0600000e+03   7.0079528e+00   4.4646730e+00   1.0331825e-02
   1.0650000e+03   6.9881935e+00   4.4395317e+00   1.0021713e-02
   1.0700000e+03   6.9685821e+00   4.4146488e+00   9.8651700e-03
   1.0750000e+03   6.9491168e+00   4.3900203e+00   9.9011500e-03
   1.0800000e+03   6.9297958e+00   4.3656427e+00   1.0099670e-02
   1.0850000e+03   6.9106173e+00   4.3415120e+00   1.0728527e-02
   1.0900000e+03   6.8915798e+00   4.3176247e+00   1.1419065e-02
   1.0950000e+03   6.8726815e+00   4.2939773e+00   1.2210415e-02
   1.1000000e+03   6.8539207e+00   4.2705663e+00   1.3354367e-02
   1.1050000e+03   6.8352959e+00   4.2473882e+00   1.4381850e-02
   1.1100000e+03   6.8168055e+00   4.2244397e+00   1.5558527e-02
   1.1150000e+03   6.7984478e+00   4.2017175e+00   1.6435767e-02
   1.1200000e+03   6.7802214e+00   4.1792184e+00   1.7749457e-02
   1.1250000e+03   6.7621247e+00   4.1569391e+00   1.9833683e-02
   1.1300000e+03   6.7441562e+00   4.1348766e+00   2.3870863e-02
   1.1350000e+03   6.7263145e+00   4.1130279e+00   3.1411310e-02
   1.1400000e+03   6.7085981e+00   4.0913899e+00   4.2320390e-02
   1.1450000e+03   6.6910056e+00   4.0699597e+00   5.6463120e-02
   1.1500000e+03   6.6735356e+00   4.0487343e+00   6.8583177e-02
   1.1550000e+03   6.6561867e+00   4.0277111e+00   7.7935270e-02
   1.1600000e+03   6.6389576e+00   4.0068871e+00   8.1898040e-02
   1.1650000e+03   6.6218469e+00   3.9862596e+00   8.3811770e-02
   1.1700000e+03   6.6048532e+00   3.9658260e+00   8.4706347e-02
   1.1750000e+03   6.5879754e+00   3.9455836e+00   8.6093117e-02
   1.1800000e+03   6.5712121e+00   3.9255298e+00   8.6721857e-02
   1.1850000e+03   6.5545620e+00   3.9056621e+00   8.7840597e-02
   1.1900000e+03   6.5380240e+00   3.8859780e+00   8.8703790e-02
   1.1950000e+03   6.5215968e+00   3.8664750e+00   8.9559213e-02
   1.2000000e+03   6.5052792e+00   3.8471507e+00   8.9064500e-02
   1.2050000e+03   6.4890700e+00   3.8280027e+00   8.8816747e-02
   1.2100000e+03   6.4729681e+00   3.8090287e+00   8.7964590e-02
   1.2150000e+03   6.4569723e+00   3.7902264e+00   8.6878703e-02
   1.2200000e+03   6.4410814e+00   3.7715936e+00   8.5080637e-02
   1.2250000e+03   6.4252944e+00   3.7531281e+00   8.4015190e-02
   1.2300000e+03   6.4096102e+00   3.7348276e+00   8.3197333e-02
   1.2350000e+03   6.3940277e+00   3.7166900e+00   8.1673410e-02
   1.2400000e+03   6.3785458e+00   3.6987133e+00   8.0870650e-02
   1.2450000e+03   6.3631634e+00   3.6808953e+00   7.9368777e-02
   1.2500000e+03   6.3478796e+00   3.6632341e+00   7.8112580e-02
   1.2550000e+03   6.3326933e+00   3.6457276e+00   7.7100543e-02
   1.2600000e+03   6.3176034e+00   3.6283739e+00   7.6562220e-02
   1.2650000e+03   6.3026091e+00   3.6111710e+00   7.5795580e-02
   1.2700000e+03   6.2877093e+00   3.5941171e+00   7.5727773e-02
   1.2750000e+03   6.2729031e+00   3.5772103e+00   7.7270830e-02
   1.2800000e+03   6.2581894e+00   3.5604487e+00   7.8685670e-02
   1.2850000e+03   6.2435675e+00   3.5438305e+00   8.1461380e-02
   1.2900000e+03   6.2290363e+00   3.5273539e+00   8.3871305e-02
   1.2950000e+03   6.2145949e+00   3.5110173e+00   8.7624950e-02
   1.3000000e+03   6.2002425e+00   3.4948188e+00   9.2698270e-02
   1.3050000e+03   6.1859781e+00   3.4787569e+00   9.9086540e-02
   1.3100000e+03   6.1718009e+00   3.4628297e+00   1.0743278e-01
   1.3150000e+03   6.1577101e+00   3.4470357e+00   1.1706317e-01
   1.3200000e+03   6.1437046e+00   3.4313733e+00   1.2816643e-01
   1.3250000e+03   6.1297839e+00   3.4158409e+00   1.4090389e-01
   1.3300000e+03   6.1159469e+00   3.4004369e+00   1.5690820e-01
   1.3350000e+03   6.1021928e+00   3.3851598e+00   1.7350681e-01
   1.3400000e+03   6.0885210e+00   3.3700080e+00   1.8905824e-01
   1.3450000e+03   6.0749305e+00   3.3549801e+00   2.0709652e-01
   1.3500000e+03   6.0614207e+00   3.3400746e+00   2.2414136e-01
   1.3550000e+03   6.0479906e+00   3.3252901e+00   2.3760177e-01
   1.3600000e+03   6.0346397e+00   3.3106251e+00   2.5482964e-01
   1.3650000e+03   6.0213670e+00   3.2960782e+00   2.7290702e-01
   1.3700000e+03   6.0081719e+00   3.2816481e+00   3.0288394e-01
   1.3750000e+03   5.9950536e+00   3.2673334e+00   3.4383394e-01
   1.3800000e+03   5.9820114e+00   3.2531328e+00   4.0505272e-01
   1.3850000e+03   5.9690446e+00   3.2390449e+00   5.0428798e-01
   1.3900000e+03   5.9561525e+00   3.2250684e+00   6.9284607e-01
   1.3950000e+03   5.9433344e+00   3.2112021e+00   9.2525163e-01
   1.4000000e+03   5.9305895e+00   3.1974447e+00   1.1875219e+00
   1.4050000e+03   5.9179173e+00   3.1837950e+00   1.4242397e+00
   1.4100000e+03   5.9053171e+00   3.1702518e+00   1.6437611e+00
   1.4150000e+03   5.8927881e+00   3.1568138e+00   1.8151778e+00
   1.4200000e+03   5.8803298e+00   3.1434798e+00   1.9389378e+00
   1.4250000e+03   5.8679414e+00   3.1302488e+00   2.0586377e+00
   1.4300000e+03   5.8556224e+00   3.1171195e+00   2.1467893e+00
   1.4350000e+03   5.8433722e+00   3.1040907e+00   2.2140780e+00
   1.4400000e+03   5.8311900e+00   3.0911615e+00   2.2540926e+00
   1.4450000e+03   5.8190753e+00   3.0783307e+00   2.2767305e+00
   1.4500000e+03   5.8070275e+00   3.0655972e+00   2.2901096e+00
   1.4550000e+03   5.7950461e+00   3.0529599e+00   2.2913157e+00
   1.4600000e+03   5.7831303e+00   3.0404178e+00   2.2762507e+00
   1.4650000e+03   5.7712796e+00   3.0279698e+00   2.2231632e+00
   1.4700000e+03   5.7594934e+00   3.0156150e+00   2.1422669e+00
   1.4750000e+03   5.7477712e+00   3.0033522e+00   2.0563395e+00
   1.4800000e+03   5.7361125e+00   2.9911806e+00   1.9566662e+00
   1.4850000e+03   5.7245166e+00   2.9790991e+00   1.8644760e+00
   1.4900000e+03   5.7129829e+00   2.9671067e+00   1.7446110e+00
   1.4950000e+03   5.7015111e+00   2.9552026e+00   1.6369721e+00
   1.5000000e+03   5.6901004e+00   2.9433857e+00   1.5350282e+00
   1.5050000e+03   5.6787505e+00   2.9316552e+00   1.4472213e+00
   1.5100000e+03   5.6674607e+00   2.9200101e+00   1.3456834e+00
   1.5150000e+03   5.6562306e+00   2.9084495e+00   1.2657611e+00
   1.5200000e+03   5.6450596e+00   2.8969726e+00   1.1794554e+00
   1.5250000e+03   5.6339473e+00   2.8855784e+00   1.1155901e+00
   1.5300000e+03   5.6228931e+00   2.8742661e+00   1.0622135e+00
   1.5350000e+03   5.6118966e+00   2.8630349e+00   9.9945810e-01
   1.5400000e+03   5.6009572e+00   2.8518838e+00   9.3796391e-01
   1.5450000e+03   5.5900745e+00   2.8408121e+00   8.7797098e-01
   1.5500000e+03   5.5792480e+00   2.8298190e+00   8.3426819e-01
   1.5550000e+03   5.5684773e+00   2.8189036e+00   7.8747554e-01
   1.5600000e+03   5.5577618e+00   2.8080651e+00   7.4659915e-01
   1.5650000e+03   5.5471011e+00   2.7973028e+00   7.1048922e-01
   1.5700000e+03   5.5364948e+00   2.7866159e+00   6.7796672e-01
   1.5750000e+03   5.5259424e+00   2.7760036e+00   6.5123582e-01
   1.5800000e+03   5.5154434e+00   2.7654651e+00   6.2690533e-01
   1.5850000e+03   5.5049975e+00   2.7549998e+00   6.0272834e-01
   1.5900000e+03   5.4946042e+00   2.7446068e+00   5.7870338e-01
   1.5950000e+03   5.4842630e+00   2.7342855e+00   5.5813393e-01
   1.6000000e+03   5.4739736e+00   2.7240352e+00   5.3989632e-01
   1.6050000e+03   5.4637355e+00   2.7138550e+00   5.2308607e-01
   1.6100000e+03   5.4535483e+00   2.7037444e+00   5.0889308e-01
   1.6150000e+03   5.4434116e+00   2.6937027e+00   4.9648221e-01
   1.6200000e+03   5.4333249e+00   2.6837291e+00   4.8414058e-01
   1.6250000e+03   5.4232880e+00   2.6738230e+00   4.7236378e-01
   1.6300000e+03   5.4133004e+00   2.6639837e+00   4.6231855e-01
   1.6350000e+03   5.4033616e+00   2.6542106e+00   4.5278534e-01
   1.6400000e+03   5.3934714e+00   2.6445031e+00   4.4492154e-01
   1.6450000e+03   5.3836293e+00   2.6348604e+00   4.3750950e-01
   1.6500000e+03   5.3738349e+00   2.6252820e+00   4.3129303e-01
   1.6550000e+03   5.3640879e+00   2.6157672e+00   4.2361193e-01
   1.6600000e+03   5.3543880e+00   2.6063155e+00   4.1968884e-01
   1.6650000e+03   5.3447346e+00   2.5969262e+00   4.1536407e-01
   1.6700000e+03   5.3351275e+00   2.5875987e+00   4.1243522e-01
   1.6750000e+03   5.3255664e+00   2.5783325e+00   4.0973318e-01
   1.6800000e+03   5.3160508e+00   2.5691269e+00   4.0866871e-01
   1.6850000e+03   5.3065804e+00   2.5599814e+00   4.0858755e-01
   1.6900000e+03   5.2971548e+00   2.5508954e+00   4.0970517e-01
   1.6950000e+03   5.2877738e+00   2.5418683e+00   4.1105193e-01
   1.7000000e+03   5.2784369e+00   2.5328997e+00   4.1239870e-01
   1.7050000e+03   5.2691439e+00   2.5239888e+00   4.1419782e-01
   1.7100000e+03   5.2598944e+00   2.5151353e+00   4.2081193e-01
   1.7150000e+03   5.2506880e+00   2.5063386e+00   4.2629359e-01
   1.7200000e+03   5.2415245e+00   2.4975981e+00   4.3282596e-01
   1.7250000e+03   5.2324035e+00   2.4889133e+00   4.4126214e-01
   1.7300000e+03   5.2233247e+00   2.4802837e+00   4.5100923e-01
   1.7350000e+03   5.2142878e+00   2.4717089e+00   4.5833714e-01
   1.7400000e+03   5.2052925e+00   2.4631882e+00   4.6566506e-01
   1.7450000e+03   5.1963384e+00   2.4547212e+00   4.9626097e-01
   1.7500000e+03   5.1874253e+00   2.4463074e+00   5.1604114e-01
   1.7550000e+03   5.1785529e+00   2.4379464e+00   5.3546192e-01
   1.7600000e+03   5.1697208e+00   2.4296375e+00   5.5477667e-01
   1.7650000e+03   5.1609287e+00   2.4213805e+00   5.7126776e-01
   1.7700000e+03   5.1521764e+00   2.4131747e+00   5.8775885e-01
   1.7750000e+03   5.1434636e+00   2.4050198e+00   6.1615178e-01
   1.7800000e+03   5.1347900e+00   2.3969153e+00   6.3007750e-01
   1.7850000e+03   5.1261553e+00   2.3888607e+00   6.4063846e-01
   1.7900000e+03   5.1175591e+00   2.3808556e+00   6.4235721e-01
   1.7950000e+03   5.1090013e+00   2.3728995e+00   6.4197178e-01
   1.8000000e+03   5.1004816e+00   2.3649920e+00   6.4297352e-01
   1.8050000e+03   5.0919996e+00   2.3571328e+00   6.4816017e-01
   1.8100000e+03   5.0835552e+00   2.3493212e+00   6.4115548e-01
   1.8150000e+03   5.0751480e+00   2.3415570e+00   6.4263664e-01
   1.8200000e+03   5.0667778e+00   2.3338397e+00   6.4442726e-01
   1.8250000e+03   5.0584442e+00   2.3261689e+00   6.4793710e-01
   1.8300000e+03   5.0501472e+00   2.3185442e+00   6.5646705e-01
   1.8350000e+03   5.0418863e+00   2.3109652e+00   6.7041464e-01
   1.8400000e+03   5.0336613e+00   2.3034315e+00   6.8703240e-01
   1.8450000e+03   5.0254721e+00   2.2959427e+00   7.0562380e-01
   1.8500000e+03   5.0173183e+00   2.2884984e+00   7.6708141e-01
   1.8550000e+03   5.0091996e+00   2.2810983e+00   8.3067201e-01
   1.8600000e+03   5.0011159e+00   2.2737419e+00   8.9479586e-01
   1.8650000e+03   4.9930669e+00   2.2664288e+00   1.1036844e+00
   1.8700000e+03   4.9850524e+00   2.2591588e+00   1.3927435e+00
   1.8750000e+03   4.9770720e+00   2.2519314e+00   1.8149351e+00
   1.8800000e+03   4.9691256e+00   2.2447463e+00   2.3313237e+00
   1.8850000e+03   4.9612130e+00   2.2376032e+00   2.8694805e+00
   1.8900000e+03   4.9533339e+00   2.2305015e+00   3.4076372e+00
   1.8950000e+03   4.9454881e+00   2.2234411e+00   5.3639381e+00
   1.9000000e+03   4.9376753e+00   2.2164216e+00   6.6395288e+00
   1.9050000e+03   4.9298953e+00   2.2094426e+00   7.6441859e+00
   1.9100000e+03   4.9221480e+00   2.2025037e+00   8.3391442e+00
   1.9150000e+03   4.9144330e+00   2.1956047e+00   8.6711543e+00
   1.9200000e+03   4.9067502e+00   2.1887452e+00   9.0031643e+00
   1.9250000e+03   4.8990994e+00   2.1819250e+00   9.4654675e+00
   1.9300000e+03   4.8914802e+00   2.1751435e+00   9.5712766e+00
   1.9350000e+03   4.8838926e+00   2.1684006e+00   9.5110088e+00
   1.9400000e+03   4.8763363e+00   2.1616960e+00   9.4507411e+00
   1.9450000e+03   4.8688111e+00   2.1550292e+00   9.1356541e+00
   1.9500000e+03   4.8613168e+00   2.1484001e+00   8.8307606e+00
   1.9550000e+03   4.8538531e+00   2.1418082e+00   8.4851263e+00
   1.9600000e+03   4.8464200e+00   2.1352533e+00   8.0783807e+00
   1.9650000e+03   4.8390171e+00   2.1287351e+00   7.7226255e+00
   1.9700000e+03   4.8316443e+00   2.1222533e+00   7.3680224e+00
   1.9750000e+03   4.8243013e+00   2.1158076e+00   7.0151478e+00
   1.9800000e+03   4.8169881e+00   2.1093977e+00   6.6645498e+00
   1.9850000e+03   4.8097043e+00   2.1030233e+00   6.3206031e+00
   1.9900000e+03   4.8024499e+00   2.0966841e+00   6.0009850e+00
   1.9950000e+03   4.7952245e+00   2.0903798e+00   5.6993944e+00
   2.0000000e+03   4.7880281e+00   2.0841103e+00   5.4098222e+00
